%time,field.linear.x,field.linear.y,field.linear.z,field.angular.x,field.angular.y,field.angular.z
1505402118930004453,0.243017166853,0.0,0.0,0.0,0.0,0.0
1505402118939943953,0.242720752954,0.0,0.0,0.0,0.0,0.0
1505402118950007789,0.242418274283,0.0,0.0,0.0,0.0,0.0
1505402118960024864,0.242109745741,0.0,0.0,0.0,0.0,0.0
1505402118969962625,0.241795152426,0.0,0.0,0.0,0.0,0.0
1505402118979961123,0.24147452414,0.0,0.0,0.0,0.0,0.0
1505402118989949612,0.241147845984,0.0,0.0,0.0,0.0,0.0
1505402118999945899,0.240815147758,0.0,0.0,0.0,0.0,0.0
1505402119009997327,0.240476429462,0.0,0.0,0.0,0.0,0.0
1505402119019948810,0.240131705999,0.0,0.0,0.0,0.0,0.0
1505402119030027611,0.239780962467,0.0,0.0,0.0,0.0,0.0
1505402119040012773,0.239424243569,0.0,0.0,0.0,0.0,0.0
1505402119050009018,0.239061519504,0.0,0.0,0.0,0.0,0.0
1505402119060289259,0.238692834973,0.0,0.0,0.0,0.0,0.0
1505402119069982260,0.238318175077,0.0,0.0,0.0,0.0,0.0
1505402119079956971,0.237937554717,0.0,0.0,0.0,0.0,0.0
1505402119090022652,0.237550988793,0.0,0.0,0.0,0.0,0.0
1505402119099945670,0.237158492208,0.0,0.0,0.0,0.0,0.0
1505402119110025708,0.23676006496,0.0,0.0,0.0,0.0,0.0
1505402119120009196,0.236355707049,0.0,0.0,0.0,0.0,0.0
1505402119129945099,0.235945448279,0.0,0.0,0.0,0.0,0.0
1505402119139990105,0.23552928865,0.0,0.0,0.0,0.0,0.0
1505402119149991808,0.235107243061,0.0,0.0,0.0,0.0,0.0
1505402119159956602,0.234679311514,0.0,0.0,0.0,0.0,0.0
1505402119169960716,0.23424552381,0.0,0.0,0.0,0.0,0.0
1505402119180032684,0.233805879951,0.0,0.0,0.0,0.0,0.0
1505402119189944799,0.233360379934,0.0,0.0,0.0,0.0,0.0
1505402119199982228,0.232909053564,0.0,0.0,0.0,0.0,0.0
1505402119209968331,0.23245190084,0.0,0.0,0.0,0.0,0.0
1505402119220002426,0.231988951564,0.0,0.0,0.0,0.0,0.0
1505402119229987023,0.231520190835,0.0,0.0,0.0,0.0,0.0
1505402119240015308,0.231045633554,0.0,0.0,0.0,0.0,0.0
1505402119250105883,0.230565309525,0.0,0.0,0.0,0.0,0.0
1505402119259969395,0.230079218745,0.0,0.0,0.0,0.0,0.0
1505402119269969626,0.229587376118,0.0,0.0,0.0,0.0,0.0
1505402119280008612,0.229089796543,0.0,0.0,0.0,0.0,0.0
1505402119290025313,0.228586494923,0.0,0.0,0.0,0.0,0.0
1505402119299995576,0.228077471256,0.0,0.0,0.0,0.0,0.0
1505402119310065208,0.227562740445,0.0,0.0,0.0,0.0,0.0
1505402119320120930,0.227042332292,0.0,0.0,0.0,0.0,0.0
1505402119329970468,0.226516246796,0.0,0.0,0.0,0.0,0.0
1505402119340046317,0.225984483957,0.0,0.0,0.0,0.0,0.0
1505402119349960254,0.22544708848,0.0,0.0,0.0,0.0,0.0
1505402119359990511,0.224904045463,0.0,0.0,0.0,0.0,0.0
1505402119369970006,0.224355384707,0.0,0.0,0.0,0.0,0.0
1505402119379960188,0.223801121116,0.0,0.0,0.0,0.0,0.0
1505402119389983404,0.223241254687,0.0,0.0,0.0,0.0,0.0
1505402119399949299,0.222675800323,0.0,0.0,0.0,0.0,0.0
1505402119409987219,0.222104787827,0.0,0.0,0.0,0.0,0.0
1505402119420053369,0.221528232098,0.0,0.0,0.0,0.0,0.0
1505402119430067264,0.220946133137,0.0,0.0,0.0,0.0,0.0
1505402119440000230,0.220358505845,0.0,0.0,0.0,0.0,0.0
1505402119450022981,0.219765365124,0.0,0.0,0.0,0.0,0.0
1505402119459966874,0.219166725874,0.0,0.0,0.0,0.0,0.0
1505402119470041771,0.218562617898,0.0,0.0,0.0,0.0,0.0
1505402119480001232,0.217953056097,0.0,0.0,0.0,0.0,0.0
1505402119489951223,0.21733802557,0.0,0.0,0.0,0.0,0.0
1505402119500200233,0.21671757102,0.0,0.0,0.0,0.0,0.0
1505402119509972416,0.216091692448,0.0,0.0,0.0,0.0,0.0
1505402119519984905,0.215460419655,0.0,0.0,0.0,0.0,0.0
1505402119530004647,0.214823767543,0.0,0.0,0.0,0.0,0.0
1505402119540107810,0.21418172121,0.0,0.0,0.0,0.0,0.0
1505402119550046113,0.213534340262,0.0,0.0,0.0,0.0,0.0
1505402119559964469,0.212881609797,0.0,0.0,0.0,0.0,0.0
1505402119569985827,0.212223559618,0.0,0.0,0.0,0.0,0.0
1505402119580055298,0.211560219526,0.0,0.0,0.0,0.0,0.0
1505402119589990738,0.210891574621,0.0,0.0,0.0,0.0,0.0
1505402119599994454,0.210217654705,0.0,0.0,0.0,0.0,0.0
1505402119610073049,0.20953848958,0.0,0.0,0.0,0.0,0.0
1505402119619985702,0.208854079247,0.0,0.0,0.0,0.0,0.0
1505402119630004026,0.208164453506,0.0,0.0,0.0,0.0,0.0
1505402119640009734,0.20746961236,0.0,0.0,0.0,0.0,0.0
1505402119649991663,0.206769585609,0.0,0.0,0.0,0.0,0.0
1505402119660471034,0.206064403057,0.0,0.0,0.0,0.0,0.0
1505402119669979642,0.205354064703,0.0,0.0,0.0,0.0,0.0
1505402119679997215,0.204638585448,0.0,0.0,0.0,0.0,0.0
1505402119690033745,0.203917995095,0.0,0.0,0.0,0.0,0.0
1505402119699967064,0.203192308545,0.0,0.0,0.0,0.0,0.0
1505402119710004904,0.202461540699,0.0,0.0,0.0,0.0,0.0
1505402119720043141,0.201725706458,0.0,0.0,0.0,0.0,0.0
1505402119729950148,0.200984835625,0.0,0.0,0.0,0.0,0.0
1505402119740014375,0.200238928199,0.0,0.0,0.0,0.0,0.0
1505402119750037318,0.199488028884,0.0,0.0,0.0,0.0,0.0
1505402119759939443,0.19873213768,0.0,0.0,0.0,0.0,0.0
1505402119769994547,0.197971284389,0.0,0.0,0.0,0.0,0.0
1505402119780016667,0.197205469012,0.0,0.0,0.0,0.0,0.0
1505402119789948172,0.196434736252,0.0,0.0,0.0,0.0,0.0
1505402119799984460,0.195659086108,0.0,0.0,0.0,0.0,0.0
1505402119810061889,0.194878533483,0.0,0.0,0.0,0.0,0.0
1505402119819993415,0.194093123078,0.0,0.0,0.0,0.0,0.0
1505402119829981959,0.193302854896,0.0,0.0,0.0,0.0,0.0
1505402119839998546,0.192507758737,0.0,0.0,0.0,0.0,0.0
1505402119850067050,0.191707849503,0.0,0.0,0.0,0.0,0.0
1505402119860057768,0.190903142095,0.0,0.0,0.0,0.0,0.0
1505402119869953893,0.190093666315,0.0,0.0,0.0,0.0,0.0
1505402119880204668,0.189279437065,0.0,0.0,0.0,0.0,0.0
1505402119890064116,0.188460484147,0.0,0.0,0.0,0.0,0.0
1505402119899990108,0.187636807561,0.0,0.0,0.0,0.0,0.0
1505402119910023809,0.18680845201,0.0,0.0,0.0,0.0,0.0
1505402119920041111,0.185975417495,0.0,0.0,0.0,0.0,0.0
1505402119929949922,0.185137733817,0.0,0.0,0.0,0.0,0.0
1505402119939985132,0.184295415878,0.0,0.0,0.0,0.0,0.0
1505402119950052078,0.183448493481,0.0,0.0,0.0,0.0,0.0
1505402119959959367,0.182596996427,0.0,0.0,0.0,0.0,0.0
1505402119969974641,0.181740924716,0.0,0.0,0.0,0.0,0.0
1505402119980023215,0.180880308151,0.0,0.0,0.0,0.0,0.0
1505402119990002343,0.180015176535,0.0,0.0,0.0,0.0,0.0
1505402119999972222,0.179145544767,0.0,0.0,0.0,0.0,0.0
1505402120010114325,0.178271427751,0.0,0.0,0.0,0.0,0.0
1505402120019986039,0.177392855287,0.0,0.0,0.0,0.0,0.0
1505402120029941538,0.176509857178,0.0,0.0,0.0,0.0,0.0
1505402120040099331,0.175622433424,0.0,0.0,0.0,0.0,0.0
1505402120050032687,0.174730628729,0.0,0.0,0.0,0.0,0.0
1505402120059997578,0.173834443092,0.0,0.0,0.0,0.0,0.0
1505402120070009354,0.172933921218,0.0,0.0,0.0,0.0,0.0
1505402120080011258,0.172029078007,0.0,0.0,0.0,0.0,0.0
1505402120089967942,0.17111992836,0.0,0.0,0.0,0.0,0.0
1505402120099931690,0.17020650208,0.0,0.0,0.0,0.0,0.0
1505402120110040726,0.169288828969,0.0,0.0,0.0,0.0,0.0
1505402120120060081,0.168366909027,0.0,0.0,0.0,0.0,0.0
1505402120130046634,0.167440786958,0.0,0.0,0.0,0.0,0.0
1505402120139967272,0.166510477662,0.0,0.0,0.0,0.0,0.0
1505402120150009562,0.165576010942,0.0,0.0,0.0,0.0,0.0
1505402120160000608,0.1646374017,0.0,0.0,0.0,0.0,0.0
1505402120170044814,0.163694679737,0.0,0.0,0.0,0.0,0.0
1505402120179992571,0.162747859955,0.0,0.0,0.0,0.0,0.0
1505402120189957704,0.161796972156,0.0,0.0,0.0,0.0,0.0
1505402120200007832,0.160842046142,0.0,0.0,0.0,0.0,0.0
1505402120210036244,0.159883081913,0.0,0.0,0.0,0.0,0.0
1505402120219988627,0.158920139074,0.0,0.0,0.0,0.0,0.0
1505402120230042198,0.157953217626,0.0,0.0,0.0,0.0,0.0
1505402120240037522,0.156982347369,0.0,0.0,0.0,0.0,0.0
1505402120249990883,0.156007543206,0.0,0.0,0.0,0.0,0.0
1505402120260050104,0.15502884984,0.0,0.0,0.0,0.0,0.0
1505402120270053779,0.154046282172,0.0,0.0,0.0,0.0,0.0
1505402120279995521,0.153059855103,0.0,0.0,0.0,0.0,0.0
1505402120290015579,0.152069613338,0.0,0.0,0.0,0.0,0.0
1505402120303063854,0.151075556874,0.0,0.0,0.0,0.0,0.0
1505402120310110339,0.150077730417,0.0,0.0,0.0,0.0,0.0
1505402120319980616,0.149076148868,0.0,0.0,0.0,0.0,0.0
1505402120329998914,0.148070842028,0.0,0.0,0.0,0.0,0.0
1505402120339986105,0.147061824799,0.0,0.0,0.0,0.0,0.0
1505402120349977803,0.146049141884,0.0,0.0,0.0,0.0,0.0
1505402120359968781,0.145032808185,0.0,0.0,0.0,0.0,0.0
1505402120369957522,0.144012853503,0.0,0.0,0.0,0.0,0.0
1505402120379970206,0.14298927784,0.0,0.0,0.0,0.0,0.0
1505402120390074598,0.141962140799,0.0,0.0,0.0,0.0,0.0
1505402120400123010,0.140931457281,0.0,0.0,0.0,0.0,0.0
1505402120410080234,0.13989725709,0.0,0.0,0.0,0.0,0.0
1505402120420201665,0.138859540224,0.0,0.0,0.0,0.0,0.0
1505402120430023420,0.137818366289,0.0,0.0,0.0,0.0,0.0
1505402120440000758,0.136773735285,0.0,0.0,0.0,0.0,0.0
1505402120450034576,0.135725691915,0.0,0.0,0.0,0.0,0.0
1505402120460014452,0.134674265981,0.0,0.0,0.0,0.0,0.0
1505402120469936916,0.133619457483,0.0,0.0,0.0,0.0,0.0
1505402120479953573,0.132561311126,0.0,0.0,0.0,0.0,0.0
1505402120490002473,0.13149985671,0.0,0.0,0.0,0.0,0.0
1505402120500421893,0.130435109138,0.0,0.0,0.0,0.0,0.0
1505402120510016561,0.129367098212,0.0,0.0,0.0,0.0,0.0
1505402120519955137,0.128295868635,0.0,0.0,0.0,0.0,0.0
1505402120529968414,0.127221420407,0.0,0.0,0.0,0.0,0.0
1505402120540031963,0.126143783331,0.0,0.0,0.0,0.0,0.0
1505402120550002952,0.12506300211,0.0,0.0,0.0,0.0,0.0
1505402120560114414,0.123979099095,0.0,0.0,0.0,0.0,0.0
1505402120570006017,0.122892089188,0.0,0.0,0.0,0.0,0.0
1505402120579974308,0.121802009642,0.0,0.0,0.0,0.0,0.0
1505402120590001569,0.120708882809,0.0,0.0,0.0,0.0,0.0
1505402120600037245,0.11961273849,0.0,0.0,0.0,0.0,0.0
1505402120610000921,0.118513606489,0.0,0.0,0.0,0.0,0.0
1505402120619971210,0.117411509156,0.0,0.0,0.0,0.0,0.0
1505402120629936439,0.116306476295,0.0,0.0,0.0,0.0,0.0
1505402120639995275,0.115198537707,0.0,0.0,0.0,0.0,0.0
1505402120650040621,0.114087715745,0.0,0.0,0.0,0.0,0.0
1505402120660058241,0.112974047661,0.0,0.0,0.0,0.0,0.0
1505402120669967054,0.111857548356,0.0,0.0,0.0,0.0,0.0
1505402120679942857,0.110738262534,0.0,0.0,0.0,0.0,0.0
1505402120690046997,0.109616197646,0.0,0.0,0.0,0.0,0.0
1505402120699968495,0.108491398394,0.0,0.0,0.0,0.0,0.0
1505402120710012969,0.107363887131,0.0,0.0,0.0,0.0,0.0
1505402120719970109,0.106233686209,0.0,0.0,0.0,0.0,0.0
1505402120730016555,0.10510083288,0.0,0.0,0.0,0.0,0.0
1505402120739970839,0.103965356946,0.0,0.0,0.0,0.0,0.0
1505402120749983843,0.102827273309,0.0,0.0,0.0,0.0,0.0
1505402120760046460,0.101686626673,0.0,0.0,0.0,0.0,0.0
1505402120769942947,0.100543431938,0.0,0.0,0.0,0.0,0.0
1505402120779982769,0.099397726357,0.0,0.0,0.0,0.0,0.0
1505402120789990073,0.0982495322824,0.0,0.0,0.0,0.0,0.0
1505402120800770010,0.0970988869667,0.0,0.0,0.0,0.0,0.0
1505402120810032985,0.0959458127618,0.0,0.0,0.0,0.0,0.0
1505402120820828887,0.0947903394699,0.0,0.0,0.0,0.0,0.0
1505402120829966201,0.0936324968934,0.0,0.0,0.0,0.0,0.0
1505402120840049899,0.092472307384,0.0,0.0,0.0,0.0,0.0
1505402120850002974,0.0913098156452,0.0,0.0,0.0,0.0,0.0
1505402120860019943,0.0901450365782,0.0,0.0,0.0,0.0,0.0
1505402120869988859,0.0889779999852,0.0,0.0,0.0,0.0,0.0
1505402120880014725,0.0878087431192,0.0,0.0,0.0,0.0,0.0
1505402120890014680,0.0866372957826,0.0,0.0,0.0,0.0,0.0
1505402120900695350,0.0854636803269,0.0,0.0,0.0,0.0,0.0
1505402120910023668,0.0842879191041,0.0,0.0,0.0,0.0,0.0
1505402120920015860,0.0831100642681,0.0,0.0,0.0,0.0,0.0
1505402120929979829,0.0819301232696,0.0,0.0,0.0,0.0,0.0
1505402120939995956,0.0807481333613,0.0,0.0,0.0,0.0,0.0
1505402120950340848,0.0795641243458,0.0,0.0,0.0,0.0,0.0
1505402120960003999,0.0783781334758,0.0,0.0,0.0,0.0,0.0
1505402120970025465,0.0771901756525,0.0,0.0,0.0,0.0,0.0
1505402120980014646,0.0760002955794,0.0,0.0,0.0,0.0,0.0
1505402120990017546,0.0748085081577,0.0,0.0,0.0,0.0,0.0
1505402121000119023,0.0736148506403,0.0,0.0,0.0,0.0,0.0
1505402121009944596,0.07241936028,0.0,0.0,0.0,0.0,0.0
1505402121020883051,0.0712220519781,0.0,0.0,0.0,0.0,0.0
1505402121030025177,0.0700229629874,0.0,0.0,0.0,0.0,0.0
1505402121040011869,0.0688221305609,0.0,0.0,0.0,0.0,0.0
1505402121050018780,0.0676195695996,0.0,0.0,0.0,0.0,0.0
1505402121059971007,0.0664153248072,0.0,0.0,0.0,0.0,0.0
1505402121069988757,0.0652094185352,0.0,0.0,0.0,0.0,0.0
1505402121080018074,0.0640018805861,0.0,0.0,0.0,0.0,0.0
1505402121089978718,0.0627927407622,0.0,0.0,0.0,0.0,0.0
1505402121099984564,0.0615820325911,0.0,0.0,0.0,0.0,0.0
1505402121109997470,0.0603697821498,0.0,0.0,0.0,0.0,0.0
1505402121119968807,0.0591560266912,0.0,0.0,0.0,0.0,0.0
1505402121129998333,0.0579407885671,0.0,0.0,0.0,0.0,0.0
1505402121139952859,0.0567241050303,0.0,0.0,0.0,0.0,0.0
1505402121150026687,0.0555060021579,0.0,0.0,0.0,0.0,0.0
1505402121159990308,0.0542865134776,0.0,0.0,0.0,0.0,0.0
1505402121170051138,0.0530656650662,0.0,0.0,0.0,0.0,0.0
1505402121180033555,0.0518434904516,0.0,0.0,0.0,0.0,0.0
1505402121189958757,0.0506200194359,0.0,0.0,0.0,0.0,0.0
1505402121200030233,0.0493952855468,0.0,0.0,0.0,0.0,0.0
1505402121210034992,0.0481693148613,0.0,0.0,0.0,0.0,0.0
1505402121220015178,0.046942140907,0.0,0.0,0.0,0.0,0.0
1505402121229979815,0.0457137934864,0.0,0.0,0.0,0.0,0.0
1505402121239980700,0.0444843024015,0.0,0.0,0.0,0.0,0.0
1505402121249963784,0.0432536974549,0.0,0.0,0.0,0.0,0.0
1505402121259987039,0.0420220121741,0.0,0.0,0.0,0.0,0.0
1505402121269958694,0.0407892763615,0.0,0.0,0.0,0.0,0.0
1505402121280036847,0.0395555235445,0.0,0.0,0.0,0.0,0.0
1505402121289977447,0.0383207798004,0.0,0.0,0.0,0.0,0.0
1505402121300037586,0.0370850786567,0.0,0.0,0.0,0.0,0.0
1505402121309993667,0.0358484499156,0.0,0.0,0.0,0.0,0.0
1505402121319969442,0.0346109233797,0.0,0.0,0.0,0.0,0.0
1505402121329992409,0.0333725325763,0.0,0.0,0.0,0.0,0.0
1505402121339976944,0.032133307308,0.0,0.0,0.0,0.0,0.0
1505402121349951740,0.0308932811022,0.0,0.0,0.0,0.0,0.0
1505402121359974251,0.029652480036,0.0,0.0,0.0,0.0,0.0
1505402121369951837,0.0284109394997,0.0,0.0,0.0,0.0,0.0
1505402121379954507,0.027168687433,0.0,0.0,0.0,0.0,0.0
1505402121389973210,0.0259257555008,0.0,0.0,0.0,0.0,0.0
1505402121399959665,0.0246821772307,0.0,0.0,0.0,0.0,0.0
1505402121410098336,0.0234379805624,0.0,0.0,0.0,0.0,0.0
1505402121420007095,0.022193197161,0.0,0.0,0.0,0.0,0.0
1505402121429965484,0.0209478605539,0.0,0.0,0.0,0.0,0.0
1505402121439988296,0.0197020005435,0.0,0.0,0.0,0.0,0.0
1505402121450028348,0.0184556469321,0.0,0.0,0.0,0.0,0.0
1505402121459949879,0.0172088313848,0.0,0.0,0.0,0.0,0.0
1505402121469956417,0.015961587429,0.0,0.0,0.0,0.0,0.0
1505402121479968344,0.0147139430046,0.0,0.0,0.0,0.0,0.0
1505402121489941891,0.0134659307078,0.0,0.0,0.0,0.0,0.0
1505402121500167450,0.0122175822034,0.0,0.0,0.0,0.0,0.0
1505402121510031174,0.0109689282253,0.0,0.0,0.0,0.0,0.0
1505402121520006867,0.00972000043839,0.0,0.0,0.0,0.0,0.0
1505402121530032149,0.00847082957625,0.0,0.0,0.0,0.0,0.0
1505402121540036876,0.00722144637257,0.0,0.0,0.0,0.0,0.0
1505402121550177163,0.00597188295797,0.0,0.0,0.0,0.0,0.0
1505402121560022830,0.00472217006609,0.0,0.0,0.0,0.0,0.0
1505402121569985372,0.00347233936191,0.0,0.0,0.0,0.0,0.0
1505402121580022640,0.00222242157906,0.0,0.0,0.0,0.0,0.0
1505402121589975184,0.000972448498942,0.0,0.0,0.0,0.0,0.0
1505402121600009537,-0.000277548970189,0.0,0.0,0.0,0.0,0.0
1505402121609978621,-0.00152753957082,0.0,0.0,0.0,0.0,0.0
1505402121619978107,-0.00277749192901,0.0,0.0,0.0,0.0,0.0
1505402121630015043,-0.00402737502009,0.0,0.0,0.0,0.0,0.0
1505402121640000092,-0.0052771572955,0.0,0.0,0.0,0.0,0.0
1505402121650042888,-0.0065268073231,0.0,0.0,0.0,0.0,0.0
1505402121659967882,-0.00777629436925,0.0,0.0,0.0,0.0,0.0
1505402121669935743,-0.00902558770031,0.0,0.0,0.0,0.0,0.0
1505402121679979838,-0.0102746542543,0.0,0.0,0.0,0.0,0.0
1505402121690030347,-0.0115234646946,0.0,0.0,0.0,0.0,0.0
1505402121700002295,-0.0127719864249,0.0,0.0,0.0,0.0,0.0
1505402121709976058,-0.0140201896429,0.0,0.0,0.0,0.0,0.0
1505402121719972753,-0.0152680417523,0.0,0.0,0.0,0.0,0.0
1505402121729950772,-0.0165155120194,0.0,0.0,0.0,0.0,0.0
1505402121739994780,-0.0177625697106,0.0,0.0,0.0,0.0,0.0
1505402121749977135,-0.0190091840923,0.0,0.0,0.0,0.0,0.0
1505402121759979585,-0.0202553216368,0.0,0.0,0.0,0.0,0.0
1505402121770011183,-0.0215009544045,0.0,0.0,0.0,0.0,0.0
1505402121779961428,-0.0227460488677,0.0,0.0,0.0,0.0,0.0
1505402121789945588,-0.0239905752242,0.0,0.0,0.0,0.0,0.0
1505402121800052911,-0.0252345018089,0.0,0.0,0.0,0.0,0.0
1505402121809981349,-0.0264777969569,0.0,0.0,0.0,0.0,0.0
1505402121819980847,-0.0277204290032,0.0,0.0,0.0,0.0,0.0
1505402121829960043,-0.0289623700082,0.0,0.0,0.0,0.0,0.0
1505402121840720513,-0.0302035864443,0.0,0.0,0.0,0.0,0.0
1505402121850055283,-0.0314440466464,0.0,0.0,0.0,0.0,0.0
1505402121859948472,-0.0326837226748,0.0,0.0,0.0,0.0,0.0
1505402121870164582,-0.0339225791395,0.0,0.0,0.0,0.0,0.0
1505402121879992671,-0.0351605899632,0.0,0.0,0.0,0.0,0.0
1505402121889972148,-0.0363977216184,0.0,0.0,0.0,0.0,0.0
1505402121899986887,-0.0376339443028,0.0,0.0,0.0,0.0,0.0
1505402121910001305,-0.0388692244887,0.0,0.0,0.0,0.0,0.0
1505402121920817754,-0.0401035323739,0.0,0.0,0.0,0.0,0.0
1505402121930007165,-0.041336838156,0.0,0.0,0.0,0.0,0.0
1505402121940002271,-0.0425691083074,0.0,0.0,0.0,0.0,0.0
1505402121950017662,-0.043800316751,0.0,0.0,0.0,0.0,0.0
1505402121960023751,-0.0450304299593,0.0,0.0,0.0,0.0,0.0
1505402121969944402,-0.0462594181299,0.0,0.0,0.0,0.0,0.0
1505402121979946409,-0.0474872477353,0.0,0.0,0.0,0.0,0.0
1505402121989988205,-0.0487138926983,0.0,0.0,0.0,0.0,0.0
1505402121999969262,-0.0499393194914,0.0,0.0,0.0,0.0,0.0
1505402122010014691,-0.0511634945869,0.0,0.0,0.0,0.0,0.0
1505402122019958349,-0.0523863956332,0.0,0.0,0.0,0.0,0.0
1505402122030045497,-0.053607981652,0.0,0.0,0.0,0.0,0.0
1505402122040053294,-0.0548282302916,0.0,0.0,0.0,0.0,0.0
1505402122049987581,-0.0560471080244,0.0,0.0,0.0,0.0,0.0
1505402122059986724,-0.057264585048,0.0,0.0,0.0,0.0,0.0
1505402122070025001,-0.0584806315601,0.0,0.0,0.0,0.0,0.0
1505402122079989516,-0.0596952140331,0.0,0.0,0.0,0.0,0.0
1505402122090023475,-0.0609083026648,0.0,0.0,0.0,0.0,0.0
1505402122100032181,-0.0621198713779,0.0,0.0,0.0,0.0,0.0
1505402122109949871,-0.0633298903704,0.0,0.0,0.0,0.0,0.0
1505402122119961063,-0.0645383223891,0.0,0.0,0.0,0.0,0.0
1505402122129965770,-0.0657451376319,0.0,0.0,0.0,0.0,0.0
1505402122140037602,-0.0669503137469,0.0,0.0,0.0,0.0,0.0
1505402122150005022,-0.0681538134813,0.0,0.0,0.0,0.0,0.0
1505402122160044402,-0.0693556070328,0.0,0.0,0.0,0.0,0.0
1505402122169953870,-0.0705556720495,0.0,0.0,0.0,0.0,0.0
1505402122179943956,-0.0717539712787,0.0,0.0,0.0,0.0,0.0
1505402122189942226,-0.0729504749179,0.0,0.0,0.0,0.0,0.0
1505402122200003762,-0.0741451606154,0.0,0.0,0.0,0.0,0.0
1505402122210050714,-0.0753379836679,0.0,0.0,0.0,0.0,0.0
1505402122220010611,-0.0765289291739,0.0,0.0,0.0,0.0,0.0
1505402122229988030,-0.0777179598808,0.0,0.0,0.0,0.0,0.0
1505402122239989687,-0.0789050534368,0.0,0.0,0.0,0.0,0.0
1505402122250001590,-0.0800901651382,0.0,0.0,0.0,0.0,0.0
1505402122260007800,-0.0812732800841,0.0,0.0,0.0,0.0,0.0
1505402122270013700,-0.0824543610215,0.0,0.0,0.0,0.0,0.0
1505402122280014273,-0.0836333855987,0.0,0.0,0.0,0.0,0.0
1505402122289956731,-0.0848103091121,0.0,0.0,0.0,0.0,0.0
1505402122299986198,-0.0859851241112,0.0,0.0,0.0,0.0,0.0
1505402122310156488,-0.0871577784419,0.0,0.0,0.0,0.0,0.0
1505402122319992836,-0.0883282646537,0.0,0.0,0.0,0.0,0.0
1505402122329977655,-0.0894965305924,0.0,0.0,0.0,0.0,0.0
1505402122339964324,-0.0906625688076,0.0,0.0,0.0,0.0,0.0
1505402122350029301,-0.0918263345957,0.0,0.0,0.0,0.0,0.0
1505402122360076369,-0.0929878130555,0.0,0.0,0.0,0.0,0.0
1505402122369967575,-0.0941469594836,0.0,0.0,0.0,0.0,0.0
1505402122380017269,-0.0953037515283,0.0,0.0,0.0,0.0,0.0
1505402122389996767,-0.0964581668377,0.0,0.0,0.0,0.0,0.0
1505402122399993937,-0.097610168159,0.0,0.0,0.0,0.0,0.0
1505402122410027461,-0.0987597256899,0.0,0.0,0.0,0.0,0.0
1505402122420009581,-0.0999068170786,0.0,0.0,0.0,0.0,0.0
1505402122429981374,-0.101051412523,0.0,0.0,0.0,0.0,0.0
1505402122439993112,-0.10219347477,0.0,0.0,0.0,0.0,0.0
1505402122449993727,-0.103332988918,0.0,0.0,0.0,0.0,0.0
1505402122460006456,-0.104469917715,0.0,0.0,0.0,0.0,0.0
1505402122470046829,-0.105604238808,0.0,0.0,0.0,0.0,0.0
1505402122479981596,-0.106735914946,0.0,0.0,0.0,0.0,0.0
1505402122489975603,-0.107864923775,0.0,0.0,0.0,0.0,0.0
